Time,Degree,Velocity,Electromagnet_Clutch_1,Electromagnet_Clutch_2,Electromagnet_Clutch_3,Electromagnet_Clutch_4
83.81,-0.18,-2.15,0,0,0,0
5131.00,-0.36,-0.04,0,0,0,0
5136.81,-0.54,-30.96,0,1,0,0
5140.26,-0.36,52.17,0,1,0,0
5146.76,-0.18,27.69,0,1,0,0
5150.97,0.00,42.74,0,1,0,0
5153.59,0.18,68.81,0,1,0,0
5156.65,0.36,58.79,0,1,0,0
5158.59,0.54,93.07,0,1,0,0
5160.69,0.72,85.51,0,1,0,0
5162.91,0.90,81.12,0,1,0,0
5164.73,1.08,98.79,0,1,0,0
5166.35,1.26,111.73,0,1,0,0
5168.12,1.44,101.47,0,1,0,0
5169.88,1.62,101.98,0,1,0,0
5171.33,1.80,124.48,0,1,0,0
5172.88,1.98,116.20,0,1,0,0
5174.33,2.16,123.54,0,1,0,0
5175.76,2.34,126.58,1,0,0,0
5177.19,2.52,125.79,1,0,0,0
5178.47,2.70,140.73,1,0,0,0
5179.81,2.88,134.23,1,0,0,0
5181.03,3.06,147.18,1,0,0,0
5182.22,3.24,151.64,1,0,0,0
5183.38,3.42,155.57,1,0,0,0
5184.54,3.60,154.24,1,0,0,0
5185.75,3.78,149.01,1,0,0,0
5186.97,3.96,148.27,1,0,0,0
5188.21,4.14,144.93,1,0,0,0
5189.08,4.32,206.66,1,0,0,0
5190.15,4.50,167.29,1,0,0,0
5191.25,4.68,164.99,1,0,0,0
5192.65,4.86,128.57,1,0,0,0
5193.73,5.04,166.20,1,0,0,0
5194.80,5.22,169.01,1,0,0,0
5195.89,5.40,164.53,1,0,0,0
5197.09,5.58,150.38,1,0,0,0
5198.17,5.76,166.67,1,0,0,0
5199.34,5.94,153.06,1,0,0,0
5200.58,6.12,145.28,1,0,0,0
5201.80,6.30,147.54,1,0,0,0
5202.85,6.48,172.08,1,0,0,0
5203.98,6.66,158.73,1,0,0,0
5205.15,6.84,154.11,1,0,0,0
5206.40,7.02,143.43,1,0,0,0
5207.54,7.20,158.03,1,0,0,0
5208.66,7.38,161.29,1,0,0,0
5209.70,7.56,172.41,1,0,0,0
5210.78,7.74,166.98,1,0,0,0
5211.91,7.92,160.00,1,0,0,0
5213.02,8.10,162.31,1,0,0,0
5214.26,8.28,144.46,1,0,0,0
5215.50,8.46,145.28,1,0,0,0
5216.69,8.64,152.03,1,0,0,0
5217.72,8.82,174.25,1,0,0,0
5218.85,9.00,159.57,1,0,0,0
5219.95,9.18,163.49,1,0,0,0
5221.02,9.36,167.44,1,0,0,0
5222.22,9.54,150.13,1,0,0,0
5223.45,9.72,146.82,1,0,0,0
5224.61,9.90,154.91,1,0,0,0
5225.76,10.08,156.25,1,0,0,0
5226.99,10.26,146.82,1,0,0,0
5228.11,10.44,160.14,1,0,0,0
5229.21,10.62,164.23,1,0,0,0
5230.31,10.80,164.08,1,0,0,0
5231.41,10.98,162.90,1,0,0,0
5232.58,11.16,154.11,1,0,0,0
5233.81,11.34,146.34,1,0,0,0
5234.91,11.52,163.49,1,0,0,0
5236.04,11.70,159.43,1,0,0,0
5237.19,11.88,156.39,1,0,0,0
5238.33,12.06,158.31,1,0,0,0
5239.50,12.24,153.32,1,0,0,0
5240.65,12.42,156.39,1,0,0,0
5241.78,12.60,159.43,1,0,0,0
5242.98,12.78,149.63,1,0,0,0
5244.10,12.96,161.00,1,0,0,0
5245.24,13.14,158.03,1,0,0,0
5246.37,13.32,159.01,1,0,0,0
5247.51,13.50,158.59,1,0,0,0
5248.66,13.68,156.79,1,0,0,0
5249.87,13.86,148.88,1,0,0,0
5250.99,14.04,160.28,1,0,0,0
5252.15,14.22,154.64,1,0,0,0
5253.30,14.40,156.39,1,0,0,0
5254.44,14.58,158.31,1,0,0,0
5255.62,14.76,152.03,1,0,0,0
5256.77,14.94,157.07,1,0,0,0
5257.93,15.12,155.71,1,0,0,0
5259.05,15.30,160.14,1,0,0,0
5260.26,15.48,148.51,1,0,0,0
5261.41,15.66,156.25,1,0,0,0
5262.57,15.84,155.44,1,0,0,0
5263.73,16.02,156.25,1,0,0,0
5264.87,16.20,157.89,1,0,0,0
5266.02,16.38,155.71,1,0,0,0
5267.13,16.56,162.45,1,0,0,0
5268.28,16.74,155.98,1,0,0,0
5269.45,16.92,154.64,1,0,0,0
5270.60,17.10,155.71,1,0,0,0
5271.75,17.28,156.39,1,0,0,0
5272.89,17.46,158.31,1,0,0,0
5274.07,17.64,152.28,1,0,0,0
5275.17,17.82,163.93,1,0,0,0
5276.37,18.00,150.50,1,0,0,0
5277.47,18.18,163.34,1,0,0,0
5278.64,18.36,154.37,1,0,0,0
5279.80,18.54,153.98,1,0,0,0
5280.96,18.72,155.84,1,0,0,0
5282.12,18.90,155.71,1,0,0,0
5283.26,19.08,157.07,1,0,0,0
5284.41,19.26,156.39,1,0,0,0
5285.59,19.44,152.93,1,0,0,0
5286.75,19.62,155.04,1,0,0,0
5287.93,19.80,152.16,1,0,0,0
5289.11,19.98,152.80,1,0,0,0
5290.27,20.16,154.77,1,0,0,0
5291.43,20.34,155.71,1,0,0,0
5292.59,20.52,155.57,1,0,0,0
5293.75,20.70,155.31,1,0,0,0
5294.92,20.88,153.71,1,0,0,0
5296.10,21.06,152.67,1,0,0,0
5297.27,21.24,153.19,1,0,0,0
5298.44,21.42,154.64,1,0,0,0
5299.60,21.60,155.04,1,0,0,0
5300.76,21.78,155.17,1,0,0,0
5301.92,21.96,154.64,1,0,0,0
5303.10,22.14,153.19,1,0,0,0
5304.28,22.32,152.28,1,0,0,0
5305.46,22.50,152.67,1,0,0,0
5306.69,22.68,146.58,1,0,0,0
5307.83,22.86,157.89,1,0,0,0
5309.00,23.04,152.67,1,0,0,0
5310.19,23.22,151.90,1,0,0,0
5311.38,23.40,150.63,1,0,0,0
5312.62,23.58,145.51,1,0,0,0
5313.82,23.76,149.88,1,0,0,0
5314.97,23.94,157.21,1,0,0,0
5316.21,24.12,145.40,1,0,0,0
5317.40,24.30,151.01,1,0,0,0
5318.54,24.48,157.48,1,0,0,0
5319.78,24.66,145.51,1,0,0,0
5320.92,24.84,157.07,1,0,0,0
5322.11,25.02,151.77,1,0,0,0
5323.35,25.20,145.51,1,0,0,0
5324.49,25.38,157.07,1,0,0,0
5325.69,25.56,150.75,1,0,0,0
5326.94,25.74,144.46,1,0,0,0
5328.13,25.92,151.01,1,0,0,0
5329.33,26.10,150.13,1,0,0,0
5330.53,26.28,150.00,1,0,0,0
5331.73,26.46,149.75,1,0,0,0
5332.89,26.64,154.51,1,0,0,0
5334.10,26.82,148.64,1,0,0,0
5335.31,27.00,148.88,1,0,0,0
5336.58,27.18,142.41,1,0,0,0
5337.79,27.36,148.76,1,0,0,0
5338.99,27.54,149.38,1,0,0,0
5340.20,27.72,148.76,1,0,0,0
5341.41,27.90,148.64,1,0,0,0
5342.62,28.08,149.13,1,0,0,0
5343.83,28.26,148.39,1,0,0,0
5345.04,28.44,149.01,1,0,0,0
5346.24,28.62,150.63,1,0,0,0
5347.39,28.80,155.71,1,0,0,0
5348.59,28.98,150.13,1,0,0,0
5349.79,29.16,149.63,1,0,0,0
5351.00,29.34,149.88,1,0,0,0
5352.21,29.52,148.88,1,0,0,0
5353.47,29.70,142.63,1,0,0,0
5354.68,29.88,148.64,1,0,0,0
5355.89,30.06,149.13,1,0,0,0
5357.10,30.24,148.76,1,0,0,0
5358.32,30.42,146.94,1,0,0,0
5359.55,30.60,146.34,1,0,0,0
5360.76,30.78,148.39,1,0,0,0
5361.94,30.96,153.19,1,0,0,0
5363.17,31.14,146.34,1,0,0,0
5364.40,31.32,145.87,1,0,0,0
5365.64,31.50,145.51,1,0,0,0
5366.88,31.68,145.16,1,0,0,0
5368.16,31.86,141.07,1,0,0,0
5369.39,32.04,146.46,1,0,0,0
5370.61,32.22,147.30,1,0,0,0
5371.78,32.40,153.06,1,0,0,0
5373.06,32.58,141.51,1,0,0,0
5374.28,32.76,147.06,1,0,0,0
5375.46,32.94,153.19,1,0,0,0
5376.72,33.12,142.07,1,0,0,0
5377.90,33.30,153.45,1,0,0,0
5379.12,33.48,147.18,1,0,0,0
5380.34,33.66,147.42,1,0,0,0
5381.58,33.84,145.75,1,0,0,0
5382.81,34.02,146.34,1,0,0,0
5384.04,34.20,146.46,1,0,0,0
5385.27,34.38,145.51,1,0,0,0
5386.51,34.56,145.16,1,0,0,0
5387.76,34.74,144.35,1,0,0,0
5389.00,34.92,144.58,1,0,0,0
5390.25,35.10,144.35,1,0,0,0
5391.50,35.28,144.58,1,0,0,0
5392.74,35.46,144.58,1,0,0,0
5393.98,35.64,144.93,1,0,0,0
5395.23,35.82,143.88,1,0,0,0
5396.48,36.00,144.23,1,0,0,0
5397.73,36.18,144.69,1,0,0,0
5398.97,36.36,144.81,1,0,0,0
5400.25,36.54,140.08,1,0,0,0
5401.44,36.72,151.52,1,0,0,0
5402.69,36.90,144.46,1,0,0,0
5403.98,37.08,138.78,1,0,0,0
5405.20,37.26,147.54,1,0,0,0
5406.49,37.44,140.52,1,0,0,0
5407.69,37.62,149.63,1,0,0,0
5408.93,37.80,145.28,1,0,0,0
5410.18,37.98,143.88,1,0,0,0
5411.43,38.16,143.77,1,0,0,0
5412.69,38.34,143.66,1,0,0,0
5413.94,38.52,142.74,1,0,0,0
5415.20,38.70,143.54,1,0,0,0
5416.51,38.88,136.99,1,0,0,0
5417.78,39.06,142.07,1,0,0,0
5419.05,39.24,141.84,1,0,0,0
5420.33,39.42,140.62,1,0,0,0
5421.60,39.60,142.07,1,0,0,0
5422.87,39.78,141.62,1,0,0,0
5424.14,39.96,141.18,1,0,0,0
5425.42,40.14,140.41,1,0,0,0
5426.71,40.32,140.30,1,0,0,0
5427.94,40.50,146.22,1,0,0,0
5429.21,40.68,141.62,1,0,0,0
5430.48,40.86,141.96,1,0,0,0
5431.80,41.04,136.16,1,0,0,0
5433.03,41.22,146.70,1,0,0,0
5434.31,41.40,139.64,1,0,0,0
5435.59,41.58,140.96,1,0,0,0
5436.93,41.76,134.23,1,0,0,0
5438.22,41.94,139.97,1,0,0,0
5439.52,42.12,138.25,1,0,0,0
5440.81,42.30,139.32,1,0,0,0
5442.11,42.48,139.00,1,0,0,0
5443.41,42.66,138.67,1,0,0,0
5444.66,42.84,143.20,1,0,0,0
5445.98,43.02,136.26,1,0,0,0
5447.30,43.20,136.99,1,0,0,0
5448.62,43.38,136.16,1,0,0,0
5449.99,43.56,131.77,1,0,0,0
5451.26,43.74,141.62,1,0,0,0
5452.57,43.92,137.09,1,0,0,0
5453.88,44.10,137.83,1,0,0,0
5455.18,44.28,137.72,1,0,0,0
5456.54,44.46,133.14,1,0,0,0
5457.85,44.64,136.99,1,0,0,0
5459.11,44.82,142.86,1,0,0,0
5460.42,45.00,137.51,1,0,0,0
5461.72,45.18,138.78,1,0,0,0
5463.02,45.36,138.04,1,0,0,0
5464.38,45.54,132.94,1,0,0,0
5465.69,45.72,137.40,1,0,0,0
5467.00,45.90,137.20,1,0,0,0
5468.31,46.08,136.99,1,0,0,0
5469.62,46.26,137.40,1,0,0,0
5470.93,46.44,137.40,1,0,0,0
5472.20,46.62,141.73,1,0,0,0
5473.57,46.80,131.29,1,0,0,0
5474.85,46.98,141.29,1,0,0,0
5476.16,47.16,136.78,1,0,0,0
5477.50,47.34,135.03,1,0,0,0
5478.82,47.52,136.26,1,0,0,0
5480.13,47.70,136.78,1,0,0,0
5481.46,47.88,135.75,1,0,0,0
5482.77,48.06,137.30,1,0,0,0
5484.08,48.24,137.72,1,0,0,0
5485.38,48.42,138.14,1,0,0,0
5486.69,48.60,137.83,1,0,0,0
5487.99,48.78,137.51,1,0,0,0
5489.29,48.96,138.46,1,0,0,0
5490.61,49.14,136.88,1,0,0,0
5491.91,49.32,138.46,1,0,0,0
5493.22,49.50,137.09,1,0,0,0
5494.53,49.68,137.20,1,0,0,0
5495.85,49.86,137.20,1,0,0,0
5497.17,50.04,136.16,1,0,0,0
5498.49,50.22,135.95,1,0,0,0
5499.81,50.40,136.67,1,0,0,0
5501.13,50.58,136.47,1,0,0,0
5502.44,50.76,136.99,1,0,0,0
5503.81,50.94,131.39,1,0,0,0
5505.12,51.12,138.04,1,0,0,0
5506.44,51.30,136.36,1,0,0,0
5507.71,51.48,141.96,1,0,0,0
5509.02,51.66,136.78,1,0,0,0
5510.34,51.84,136.99,1,0,0,0
5511.69,52.02,133.33,1,0,0,0
5512.99,52.20,137.93,1,0,0,0
5514.29,52.38,138.57,1,0,0,0
5515.59,52.56,138.46,1,0,0,0
5516.89,52.74,138.67,1,0,0,0
5518.19,52.92,138.25,1,0,0,0
5519.50,53.10,136.99,1,0,0,0
5520.81,53.28,137.93,1,0,0,0
5522.08,53.46,141.51,1,0,0,0
5523.43,53.64,133.83,1,0,0,0
5524.69,53.82,142.41,1,0,0,0
5526.00,54.00,136.88,1,0,0,0
5527.38,54.18,131.29,1,0,0,0
5528.71,54.36,135.24,1,0,0,0
5530.04,54.54,134.73,1,0,0,0
5531.37,54.72,135.85,1,0,0,0
5532.69,54.90,136.26,1,0,0,0
5534.02,55.08,135.75,1,0,0,0
5535.34,55.26,135.54,1,0,0,0
5536.67,55.44,135.75,1,0,0,0
5537.94,55.62,141.62,1,0,0,0
5539.26,55.80,136.16,1,0,0,0
5540.58,55.98,136.99,1,0,0,0
5541.89,56.16,136.99,1,0,0,0
5543.25,56.34,132.26,1,0,0,0
5544.56,56.52,137.20,1,0,0,0
5545.87,56.70,137.51,1,0,0,0
5547.14,56.88,141.62,1,0,0,0
5548.46,57.06,137.20,1,0,0,0
5549.81,57.24,132.84,1,0,0,0
5551.14,57.42,135.75,1,0,0,0
5552.41,57.60,141.18,1,0,0,0
5553.78,57.78,131.48,1,0,0,0
5555.06,57.96,140.52,1,0,0,0
5556.38,58.14,136.26,1,0,0,0
5557.71,58.32,135.54,1,0,0,0
5559.05,58.50,134.73,1,0,0,0
5560.38,58.68,134.63,1,0,0,0
5561.76,58.86,130.81,1,0,0,0
5563.09,59.04,135.03,1,0,0,0
5564.42,59.22,135.75,1,0,0,0
5565.71,59.40,139.64,1,0,0,0
5567.07,59.58,132.06,1,0,0,0
5568.40,59.76,135.14,1,0,0,0
5569.73,59.94,135.64,1,0,0,0
5571.01,60.12,140.85,1,0,0,0
5572.33,60.30,136.57,1,0,0,0
5573.65,60.48,135.75,1,0,0,0
5574.98,60.66,135.34,1,0,0,0
5576.31,60.84,135.34,1,0,0,0
5577.64,61.02,135.14,1,0,0,0
5578.97,61.20,135.85,1,0,0,0
5580.29,61.38,136.26,1,0,0,0
5581.63,61.56,134.33,1,0,0,0
5582.97,61.74,134.53,1,0,0,0
5584.30,61.92,134.73,1,0,0,0
5585.65,62.10,133.93,1,0,0,0
5586.98,62.28,134.93,1,0,0,0
5588.33,62.46,134.13,1,0,0,0
5589.67,62.64,134.33,1,0,0,0
5591.01,62.82,134.33,1,0,0,0
5592.34,63.00,134.83,1,0,0,0
5593.73,63.18,129.59,1,0,0,0
5595.02,63.36,139.21,1,0,0,0
5596.36,63.54,135.14,1,0,0,0
5597.69,63.72,134.83,1,0,0,0
5599.03,63.90,134.33,1,0,0,0
5600.37,64.08,134.63,1,0,0,0
5601.70,64.26,135.14,1,0,0,0
5603.03,64.44,135.14,1,0,0,0
5604.37,64.62,134.93,1,0,0,0
5605.70,64.80,134.63,1,0,0,0
5607.05,64.98,133.83,1,0,0,0
5608.39,65.16,134.03,1,0,0,0
5609.74,65.34,133.63,1,0,0,0
5611.09,65.52,133.23,1,0,0,0
5612.44,65.70,133.53,1,0,0,0
5613.80,65.88,132.45,1,0,0,0
5615.19,66.06,129.12,1,0,0,0
5616.55,66.24,132.16,1,0,0,0
5617.90,66.42,133.23,1,0,0,0
5619.21,66.60,138.25,1,0,0,0
5620.55,66.78,134.03,1,0,0,0
5621.90,66.96,133.04,1,0,0,0
5623.25,67.14,133.23,1,0,0,0
5624.60,67.32,133.53,1,0,0,0
5626.00,67.50,129.22,1,0,0,0
5627.34,67.68,134.03,1,0,0,0
5628.63,67.86,138.89,1,0,0,0
5630.02,68.04,129.50,1,0,0,0
5631.32,68.22,138.78,1,0,0,0
5632.68,68.40,132.06,1,0,0,0
5634.07,68.58,129.68,1,0,0,0
5635.38,68.76,137.61,1,0,0,0
5636.74,68.94,132.35,1,0,0,0
5638.10,69.12,132.55,1,0,0,0
5639.52,69.30,126.85,1,0,0,0
5640.88,69.48,132.45,1,0,0,0
5642.23,69.66,132.94,1,0,0,0
5643.59,69.84,132.74,1,0,0,0
5644.94,70.02,132.65,1,0,0,0
5646.31,70.20,131.68,1,0,0,0
5647.68,70.38,131.58,1,0,0,0
5648.99,70.56,137.09,1,0,0,0
5650.35,70.74,132.74,1,0,0,0
5651.71,70.92,132.45,1,0,0,0
5653.05,71.10,133.63,1,0,0,0
5654.40,71.28,133.14,1,0,0,0
5655.77,71.46,132.26,1,0,0,0
5657.11,71.64,134.13,1,0,0,0
5658.47,71.82,132.74,1,0,0,0
5659.82,72.00,132.74,1,0,0,0
5661.18,72.18,132.35,1,0,0,0
5662.60,72.36,126.94,1,0,0,0
5663.93,72.54,135.64,1,0,0,0
5665.30,72.72,131.48,1,0,0,0
5666.69,72.90,129.03,1,0,0,0
5668.05,73.08,132.06,1,0,0,0
5669.42,73.26,131.77,1,0,0,0
5670.79,73.44,131.29,1,0,0,0
5672.21,73.62,126.94,1,0,0,0
5673.57,73.80,132.45,1,0,0,0
5674.95,73.98,130.43,1,0,0,0
5676.32,74.16,131.48,1,0,0,0
5677.69,74.34,131.10,1,0,0,0
5679.01,74.52,135.95,1,0,0,0
5680.38,74.70,131.58,1,0,0,0
5681.75,74.88,131.10,1,0,0,0
5683.12,75.06,132.26,1,0,0,0
5684.48,75.24,131.68,1,0,0,0
5685.85,75.42,131.58,1,0,0,0
5687.23,75.60,130.91,1,0,0,0
5688.60,75.78,130.53,1,0,0,0
5689.99,75.96,130.15,1,0,0,0
5691.37,76.14,130.53,1,0,0,0
5692.75,76.32,129.96,1,0,0,0
5694.14,76.50,129.59,1,0,0,0
5695.52,76.68,130.53,1,0,0,0
5696.92,76.86,129.12,1,0,0,0
5698.30,77.04,130.34,1,0,0,0
5699.69,77.22,128.94,1,0,0,0
5701.08,77.40,130.15,1,0,0,0
5702.47,77.58,129.12,1,0,0,0
5703.84,77.76,131.87,1,0,0,0
5705.21,77.94,130.81,1,0,0,0
5706.60,78.12,129.87,1,0,0,0
5707.98,78.30,129.78,1,0,0,0
5709.37,78.48,130.53,1,0,0,0
5710.75,78.66,129.59,1,0,0,0
5712.13,78.84,130.72,1,0,0,0
5713.52,79.02,129.68,1,0,0,0
5714.90,79.20,130.43,1,0,0,0
5716.29,79.38,129.50,1,0,0,0
5717.69,79.56,128.94,1,0,0,0
5719.08,79.74,129.12,1,0,0,0
5720.47,79.92,129.22,1,0,0,0
5721.88,80.10,127.93,1,0,0,0
5723.27,80.28,129.59,1,0,0,0
5724.68,80.46,127.84,1,0,0,0
5726.07,80.64,129.31,1,0,0,0
5727.47,80.82,128.11,1,0,0,0
5728.87,81.00,128.76,1,0,0,0
5730.31,81.18,125.00,1,0,0,0
5731.65,81.36,134.83,1,0,0,0
5733.04,81.54,129.68,1,0,0,0
5734.42,81.72,129.68,1,0,0,0
5735.86,81.90,125.52,1,0,0,0
5737.20,82.08,134.33,1,0,0,0
5738.63,82.26,125.17,1,0,0,0
5740.03,82.44,128.57,1,0,0,0
5741.39,82.62,132.45,1,0,0,0
5742.79,82.80,129.12,1,0,0,0
5744.19,82.98,128.76,1,0,0,0
5745.59,83.16,128.21,1,0,0,0
5747.05,83.34,123.63,1,0,0,0
5748.40,83.52,132.35,1,0,0,0
5749.82,83.70,127.48,1,0,0,0
5751.23,83.88,127.39,1,0,0,0
5752.69,84.06,123.12,1,0,0,0
5754.10,84.24,127.84,1,0,0,0
5755.50,84.42,128.66,1,0,0,0
5756.93,84.60,125.96,1,0,0,0
5758.33,84.78,128.66,1,0,0,0
5759.73,84.96,128.76,1,0,0,0
5761.09,85.14,132.16,1,0,0,0
5762.49,85.32,128.21,1,0,0,0
5763.90,85.50,127.84,1,0,0,0
5765.31,85.68,127.84,1,0,0,0
5766.71,85.86,127.93,1,0,0,0
5768.17,86.04,123.71,1,0,0,0
5769.59,86.22,127.03,1,0,0,0
5771.00,86.40,127.12,1,0,0,0
5772.42,86.58,126.94,1,0,0,0
5773.81,86.76,129.31,1,0,0,0
5775.25,86.94,125.09,1,0,0,0
5776.66,87.12,127.57,1,0,0,0
5778.05,87.30,129.96,1,0,0,0
5779.47,87.48,126.23,1,0,0,0
5780.90,87.66,125.96,1,0,0,0
5782.32,87.84,127.12,1,0,0,0
5783.74,88.02,126.49,1,0,0,0
5785.16,88.20,127.12,1,0,0,0
5786.58,88.38,126.58,1,0,0,0
5788.00,88.56,127.03,1,0,0,0
5789.42,88.74,126.49,1,0,0,0
5790.84,88.92,126.49,1,0,0,0
5792.27,89.10,126.40,1,0,0,0
5793.69,89.28,126.23,1,0,0,0
5795.12,89.46,126.67,1,0,0,0
5796.54,89.64,126.40,1,0,0,0
5797.97,89.82,125.70,1,0,0,0
5799.40,90.00,126.32,1,0,0,0
5800.83,90.18,125.44,1,0,0,0
5802.26,90.36,126.23,1,0,0,0
5803.70,90.54,124.57,1,0,0,0
5805.14,90.72,125.61,1,0,0,0
5806.62,90.90,121.62,1,0,0,0
5808.06,91.08,124.57,1,0,0,0
5809.50,91.26,124.91,1,0,0,0
5810.89,91.44,129.68,1,0,0,0
5812.33,91.62,125.52,1,0,0,0
5813.76,91.80,125.61,1,0,0,0
5815.19,91.98,126.05,1,0,0,0
5816.67,92.16,121.05,1,0,0,0
5818.11,92.34,125.26,1,0,0,0
5819.55,92.52,125.44,1,0,0,0
5820.99,92.70,124.65,1,0,0,0
5822.38,92.88,129.96,1,0,0,0
5823.82,93.06,124.22,1,0,0,0
5825.26,93.24,125.44,1,0,0,0
5826.75,93.42,120.97,1,0,0,0
5828.15,93.60,128.39,1,0,0,0
5829.60,93.78,123.97,1,0,0,0
5831.05,93.96,124.31,1,0,0,0
5832.55,94.14,120.16,1,0,0,0
5833.96,94.32,127.39,1,0,0,0
5835.45,94.50,120.64,1,0,0,0
5836.90,94.68,124.22,1,0,0,0
5838.35,94.86,124.31,1,0,0,0
5839.79,95.04,124.57,1,0,0,0
5841.24,95.22,124.22,1,0,0,0
5842.69,95.40,124.22,1,0,0,0
5844.10,95.58,128.30,1,0,0,0
5845.54,95.76,124.57,1,0,0,0
5847.00,95.94,123.29,1,0,0,0
5848.50,96.12,120.08,1,0,0,0
5849.96,96.30,123.46,1,0,0,0
5851.42,96.48,123.63,1,0,0,0
5852.87,96.66,123.97,1,0,0,0
5854.32,96.84,123.54,1,0,0,0
5855.74,97.02,127.03,1,0,0,0
5857.22,97.20,122.03,1,0,0,0
5858.68,97.38,122.87,1,0,0,0
5860.15,97.56,122.45,1,0,0,0
5861.62,97.74,122.53,1,0,0,0
5863.10,97.92,122.03,1,0,0,0
5864.57,98.10,122.28,1,0,0,0
5866.03,98.28,123.20,1,0,0,0
5867.50,98.46,122.53,1,0,0,0
5868.97,98.64,122.28,1,0,0,0
5870.49,98.82,118.34,1,0,0,0
5871.92,99.00,125.87,1,0,0,0
5873.43,99.18,118.89,1,0,0,0
5874.87,99.36,125.52,1,0,0,0
5876.34,99.54,122.03,1,0,0,0
5877.82,99.72,121.95,1,0,0,0
5879.30,99.90,121.87,1,0,0,0
5880.77,100.08,122.20,1,0,0,0
5882.25,100.26,121.95,1,0,0,0
5883.71,100.44,122.95,1,0,0,0
5885.19,100.62,121.70,1,0,0,0
5886.67,100.80,121.13,1,0,0,0
5888.17,100.98,120.00,1,0,0,0
5889.67,101.16,120.81,1,0,0,0
5891.17,101.34,119.92,1,0,0,0
5892.67,101.52,119.36,1,0,0,0
5894.18,101.70,119.36,1,0,0,0
5895.70,101.88,118.27,1,0,0,0
5897.23,102.06,117.88,1,0,0,0
5898.77,102.24,117.26,1,0,0,0
5900.36,102.42,113.21,1,0,0,0
5901.90,102.60,116.96,1,0,0,0
5903.46,102.78,115.38,1,0,0,0
5905.02,102.96,114.80,1,0,0,0
5906.61,103.14,113.28,1,0,0,0
5908.17,103.32,115.53,1,0,0,0
5909.78,103.50,111.66,1,0,0,0
5911.43,103.68,109.42,1,0,0,0
5913.10,103.86,107.40,1,0,0,0
5914.77,104.04,108.37,1,0,0,0
5916.44,104.22,107.27,1,0,0,0
5918.14,104.40,106.01,1,0,0,0
5919.84,104.58,106.07,1,0,0,0
5921.55,104.76,105.26,1,0,0,0
5923.26,104.94,105.20,1,0,0,0
5924.94,105.12,106.82,1,0,0,0
5926.69,105.30,103.15,1,0,0,0
5928.46,105.48,101.52,1,0,0,0
5930.28,105.66,99.23,1,0,0,0
5932.07,105.84,100.22,1,0,0,0
5933.89,106.02,98.96,1,0,0,0
5935.69,106.20,99.78,1,0,0,0
5937.57,106.38,96.05,1,0,0,0
5939.46,106.56,95.04,1,0,0,0
5941.38,106.74,93.95,1,0,0,0
5943.36,106.92,91.09,1,0,0,0
5945.29,107.10,93.07,1,0,0,0
5947.24,107.28,92.12,1,0,0,0
5949.24,107.46,90.23,1,0,0,0
5951.23,107.64,90.27,1,0,0,0
5953.25,107.82,89.20,1,0,0,0
5955.25,108.00,89.96,1,0,0,0
5957.33,108.18,86.66,1,0,0,0
5959.50,108.36,83.03,1,0,0,0
5961.63,108.54,84.27,1,0,0,0
5963.80,108.72,82.95,1,0,0,0
5965.98,108.90,82.57,1,0,0,0
5968.20,109.08,81.30,1,0,0,0
5970.40,109.26,81.89,1,0,0,0
5972.65,109.44,79.72,1,0,0,0
5974.94,109.62,78.74,1,0,0,0
5977.24,109.80,78.12,1,0,0,0
5979.58,109.98,76.99,1,0,0,0
5981.95,110.16,76.08,1,0,0,0
5984.38,110.34,73.89,1,0,0,0
5986.81,110.52,74.29,1,0,0,0
5989.19,110.70,75.41,1,0,0,0
5991.67,110.88,72.58,1,0,0,0
5994.17,111.06,72.17,1,0,0,0
5996.73,111.24,70.15,1,0,0,0
5999.28,111.42,70.64,1,0,0,0
6001.82,111.60,70.87,1,0,0,0
6004.47,111.78,67.98,1,0,0,0
6007.06,111.96,69.52,1,0,0,0
6009.78,112.14,66.20,1,0,0,0
6012.44,112.32,67.54,1,0,0,0
6015.17,112.50,65.98,1,0,0,0
6017.98,112.68,63.99,1,0,0,0
6020.73,112.86,65.53,1,0,0,0
6023.60,113.04,62.83,1,0,0,0
6026.44,113.22,63.16,1,0,0,0
6029.31,113.40,62.89,1,0,0,0
6032.13,113.58,63.65,1,0,0,0
6035.11,113.76,60.48,1,0,0,0
6038.02,113.94,61.96,1,0,0,0
6041.05,114.12,59.27,1,0,0,0
6044.05,114.30,60.14,1,0,0,0
6047.14,114.48,58.10,1,0,0,0
6050.25,114.66,57.93,1,0,0,0
6053.34,114.84,58.23,1,0,0,0
6056.55,115.02,56.06,1,0,0,0
6059.77,115.20,56.04,1,0,0,0
6063.00,115.38,55.74,1,0,0,0
6066.27,115.56,54.89,1,0,0,0
6069.53,115.74,55.27,1,0,0,0
6072.90,115.92,53.44,1,0,0,0
6076.26,116.10,53.49,1,0,0,0
6079.67,116.28,52.85,1,0,0,0
6083.11,116.46,52.31,1,0,0,0
6086.54,116.64,52.51,1,0,0,0
6090.08,116.82,50.86,1,0,0,0
6093.59,117.00,51.31,1,0,0,0
6097.14,117.18,50.69,1,0,0,0
6100.73,117.36,50.15,1,0,0,0
6104.34,117.54,49.76,1,0,0,0
6107.99,117.72,49.36,1,0,0,0
6111.63,117.90,49.50,1,0,0,0
6115.27,118.08,49.34,1,0,0,0
6118.90,118.26,49.66,1,0,0,0
6122.63,118.44,48.28,1,0,0,0
6126.34,118.62,48.44,1,0,0,0
6130.08,118.80,48.21,1,0,0,0
6133.75,118.98,49.03,1,0,0,0
6137.51,119.16,47.82,1,0,0,0
6141.24,119.34,48.34,1,0,0,0
6144.99,119.52,47.97,1,0,0,0
6148.70,119.70,48.53,1,0,0,0
6152.50,119.88,47.39,1,0,0,0
6156.22,120.06,48.35,1,0,0,0
6160.01,120.24,47.51,1,0,1,0
6163.74,120.42,48.26,1,0,1,0
6167.39,120.60,49.32,1,0,1,0
6173.83,120.78,27.92,1,0,1,0
6179.67,120.96,30.83,1,0,1,0
6204.18,120.78,-7.35,1,0,1,0
6213.81,120.60,-18.69,1,0,1,0
6221.27,120.42,-24.14,1,0,0,1
6238.11,120.60,10.69,1,0,0,1
6253.44,120.42,-11.74,1,0,0,1
6271.83,120.60,9.79,1,0,0,1
6284.94,120.42,-13.73,1,0,0,1
6302.61,120.60,10.19,1,0,0,1
0.00,0.00,0.00,0,0,0,0
